epoch,phase,loss_bce,loss_kd,loss_diff,val_auc,val_f1,best
1,1,0.3092750652747996,0.13718431530629888,1.0121444814345415,0.8499670088848126,0.5886474567962047,True
2,1,0.3091500532977721,0.13748344822841532,1.0003129051012152,0.8499689475903871,0.5897262638718561,True
3,1,0.3089144703219919,0.13693644982926986,0.9998227901318494,0.850106884788619,0.5925275155245074,True
4,1,0.3090433855267132,0.13762428392382228,1.000052173348034,0.8500108139775993,0.5929921584669616,False
5,1,0.3081379217260024,0.13643050040392316,1.0001447446206038,0.8500232336693567,0.5900392530824077,False
6,1,0.30897826745229606,0.13728855922818184,0.9999346487662372,0.8499285592621991,0.5904533946780499,False
7,1,0.3088659801903893,0.13699251742047422,0.9996252200182747,0.8499760394253553,0.5918934504724118,False
8,1,0.30876728278749127,0.13663832317380345,1.0028043529566597,0.8500033004895776,0.5907757920859518,False
9,1,0.3085586156915216,0.13585074925247362,0.9998256038216984,0.8499478822730303,0.5930722584276978,False
10,1,0.30931781758280363,0.13826458068454966,1.0000722758910234,0.8499342758495392,0.5895644044029456,False
11,2,0.3317848996204488,0.18198570828227437,0.9999982732183793,0.8467418655058608,0.5874714027391372,False
12,2,0.31907907917219047,0.13840968249475255,1.000128570724936,0.8479320535131523,0.586084665111856,False
13,2,0.31133343104053945,0.12900749440578854,0.9998891932122848,0.8487974622640924,0.5835798057892608,False
14,2,0.3087471092448515,0.13353603793417707,1.0002792933407951,0.8475595668467226,0.577694810192292,False
15,2,0.3060926830067354,0.13431944544701016,1.0000184371190912,0.8472455478700727,0.5802668872525543,False
16,2,0.30497464975889993,0.13339842417660883,1.0000557654044206,0.8448694811847876,0.591080061809579,False
17,2,0.3034541966284023,0.13913076633916183,0.9999929719111499,0.848608533174227,0.592128399042706,False
18,2,0.3000185603604597,0.13253850708989537,1.0001526930752922,0.8473616360110652,0.5826773968738761,False
19,2,0.29529134052641254,0.12859282379641251,1.0001413664397072,0.8486214594002082,0.5746019879942625,False
20,2,0.29222151198807883,0.1310191925834207,0.9999865153256584,0.8473650808852289,0.5913202065423422,False
21,2,0.29256590937866883,0.13416200416053042,1.0001546565224142,0.8478783947184343,0.5959475270167066,False
22,2,0.28897130577003255,0.13164479285478592,0.9999420905814451,0.8482808483100601,0.577702236061999,False
23,2,0.28929025110076456,0.13393227777936878,0.9999197370865766,0.8489380587664954,0.5808904432335102,False
24,2,0.2864384230445413,0.13771947517114527,0.9999175106777864,0.8477192618809533,0.5858218522998184,False
25,2,0.2844504959443036,0.13083575687864246,0.999923025860506,0.8497459124329871,0.5897082518891998,False
26,2,0.2815754737924127,0.1327593295889742,0.9998783556854024,0.8469367866590163,0.5803426711191142,False
27,2,0.2794874494566637,0.1295358253752484,1.0001688213909374,0.849009166167139,0.5919043999507839,False
28,2,0.2767580072669422,0.13296720714253538,1.0000637138591093,0.8477209492898441,0.5930477820681604,False
29,2,0.2766261626692379,0.13248243467772708,1.0002267781425924,0.8474519739186445,0.583013584980631,False
30,2,0.27695973217487335,0.1360823404701317,1.0000364394748913,0.846281058374968,0.5791198213624673,False
31,2,0.27393599380465117,0.13348804786801338,1.000113960574655,0.8467985536310234,0.5919150307115599,False
32,2,0.27250245125854716,0.13351795406025999,1.0000405118745916,0.8483086841627425,0.5890461060689732,False
33,2,0.27265864961287556,0.13368050118579583,1.0000682192690231,0.8465784337385329,0.594547384760159,False
34,2,0.2698347603573519,0.1354917276869802,0.9999421677168678,0.8478724154874143,0.5822270638370616,False
35,2,0.2702655538040049,0.134778689373942,0.9999902265913346,0.847864970293888,0.5854721722760622,False
36,2,0.2689092019025017,0.13292044664130492,1.0000714782406301,0.8487204046079239,0.5863095970921958,False
37,2,0.2670959207941504,0.133304512456936,0.9999262252274681,0.8478091201829198,0.5816689602897138,False
38,2,0.2666800491073552,0.13484441379413886,1.0002916209837969,0.8473807514085772,0.5932070131457272,False
39,2,0.26559677413281274,0.1333870955688112,0.9999610764138839,0.8477104111813352,0.5859987636775722,False
40,2,0.26569634588325725,0.1357557681553504,1.0000629354925716,0.848148476551299,0.5821901440937272,False
41,2,0.2649363967425683,0.1340465602629325,1.0001541902037228,0.848876617699905,0.5865538133631907,False
42,2,0.2635747470399913,0.1328580250196597,1.000073674847098,0.8499176933713644,0.5822070479848016,False
43,2,0.26283492849153633,0.13302594795823097,1.0000309470821829,0.8489763383352917,0.5903078372137877,False
44,2,0.26329927146434784,0.13354584004949122,0.9999583679087022,0.848536356622199,0.5868837143526037,False
45,2,0.26203517352833466,0.1321189782637007,1.0000784169225132,0.8483854661084795,0.5892802548041911,False
46,2,0.26105555453721213,0.13569370438070857,0.9998411220662734,0.8460917876509993,0.5794726865604372,False
47,2,0.2634183023782337,0.1364928514641874,0.9997588694095612,0.8494091360729425,0.5850273612194002,False
48,2,0.26070674158194485,0.13337439408197121,1.0001172002624064,0.8483891858269408,0.5851527711549964,False
49,2,0.2609967580612968,0.13407429614487817,0.9999946215573479,0.848393767149312,0.5841585157475326,False
50,2,0.25910335516228394,0.13186847659594872,1.0000914352781631,0.8481813625144357,0.5891610535114957,False
51,2,0.2598237833556007,0.13226796730476267,1.0000419388799107,0.8483705530290322,0.5857414493514697,False
52,2,0.2582788134322447,0.13104578282903223,1.0001182135413675,0.8481910201093423,0.584934987594531,False
53,2,0.2582460751428324,0.1319586209514562,1.0000237103770762,0.8484598148112044,0.5893761233907046,False
54,2,0.25812635702245373,0.13262000921017983,1.0001000323716331,0.8491871073494648,0.5816669827453307,False
55,2,0.257479743922458,0.13370151160394445,1.0002224760897018,0.848410400087755,0.5863530212802168,False
56,2,0.25844185624052496,0.13294092258986304,0.999972930725883,0.8477355008557546,0.5844890695684472,False
57,2,0.2581952144117916,0.1320591089041794,1.0000898259527542,0.8485846458975438,0.5847635172202664,False
58,2,0.2569963458706351,0.1331863396746271,1.000016971546061,0.848131774287108,0.5846637003095625,False
59,2,0.2573142766075976,0.13311811470810106,0.9999387614867267,0.8480777364999529,0.5875848563652731,False
60,2,0.2570365246604471,0.13137032858589115,0.9999408686862272,0.8494171400614882,0.5838597784558005,False
61,2,0.25573767108075757,0.130436858490986,0.9999091081759509,0.8483354442505364,0.5856067999931014,False
62,2,0.25634486009092894,0.13235880061984062,1.0002573027330286,0.8485886402434488,0.5853074142909999,False
63,2,0.255309534861761,0.13024334916297128,1.0002242344267227,0.8483195366808035,0.5872748414022542,False
64,2,0.2555529790766099,0.13264402440365622,1.0000848892857046,0.8484130754771628,0.5811419674441625,False
65,2,0.25574101025567336,0.13014335513991468,0.9998626147999483,0.8491265936245076,0.5837425182024936,False
66,2,0.25609586694661307,0.13405314569964127,1.0001732969985289,0.8489299505991239,0.5851659618272482,False
67,2,0.25484972973080244,0.12985411680796566,1.000075738219654,0.848382865638308,0.5895881953902172,False
68,2,0.25559048486106534,0.13248122352011063,1.0000060007852667,0.8480777342862916,0.5873130771791361,False
69,2,0.2557075374266681,0.1318035892703954,1.000014199930079,0.8484577576461337,0.5868499644463837,False
70,2,0.25482885408050876,0.13268480362261043,0.9998507937964272,0.8483212684289555,0.5881453581620578,False
71,2,0.2544497273424092,0.13038227268878153,0.999943857683855,0.8482556853033298,0.5836021753158162,False
72,2,0.25457951163544373,0.13040518541546428,0.9999995336813086,0.8488300116586565,0.5835579353780195,False
73,2,0.2543234084458912,0.13057181567830198,0.9999061647583457,0.8484889196514654,0.5850154273231183,False
74,2,0.2544805714312722,0.13149752117255153,1.0000167103374706,0.8483437052079967,0.5851926974512163,False
75,2,0.25450166665455876,0.12999958479229143,1.0000861725386452,0.8486312265035663,0.5853051689432137,False
76,2,0.25442104567499724,0.13009295415352373,0.9999009423396167,0.8489178281693779,0.5841989278969071,False
77,2,0.2539072645937695,0.13021752282100565,1.0000507007626926,0.8487292009248364,0.5847535536545994,False
78,2,0.2538943167995004,0.13023228307857232,0.9999906788854038,0.8488847926997629,0.5842153000513128,False
79,2,0.254224700086257,0.1313075528425329,0.9998379402300891,0.8487420167240934,0.5835481940486222,False
80,2,0.2534740768811282,0.13031502177610116,1.0000224919880139,0.8487450478284397,0.5840879478145466,False
81,2,0.25295521581874175,0.12978263286983266,0.9999794661998749,0.84878081778416,0.5828920488696689,False
82,2,0.25380925615044203,0.1289094971383319,0.9997414420632755,0.8488258269198891,0.5829961596820025,False
83,2,0.2539821503793492,0.1288170084795531,1.0000841039068558,0.8486374002385311,0.5832178956047193,False
84,2,0.25383755959132137,0.1304248972412418,0.9997571110725403,0.8488980293439253,0.5847273870761498,False
85,2,0.25311871486551624,0.12941913876463385,0.9999558645136216,0.8485388550386423,0.5865098357379306,False
86,2,0.2533698682399357,0.12992630898952484,1.000052965739194,0.8482676033790171,0.5844860845593446,False
87,2,0.2534467823365155,0.12993542455575047,1.0000102940727682,0.848642583264037,0.5834580260718453,False
88,2,0.2531017205294441,0.12920521462664886,0.9999416628304649,0.8486304773464439,0.5831317139606542,False
89,2,0.25414083503624973,0.12936359797330463,0.9997966307051042,0.8486372782480227,0.5840341404415906,False
90,2,0.2534627563813153,0.13012931254856727,1.0000799789148218,0.8485660318977588,0.583787786094916,False
91,3,0.25331983101718564,0.12974302624078357,0.0,0.8486971453706962,0.5840280910554604,False
92,3,0.2530595559407683,0.12942926476106925,0.0,0.8486744621007544,0.5828490539296779,False
93,3,0.25324810866047354,0.13015859113896594,0.0,0.848627558761452,0.5825624310325141,False
94,3,0.253159576040857,0.1294615113121622,0.0,0.8487450130961317,0.5843124306735424,False
95,3,0.2530433772241368,0.12885258785065482,0.0,0.8486806536740495,0.5840628622787299,False
96,3,0.25325081059161353,0.1296529620885849,0.0,0.8487058955524167,0.5840861569296019,False
97,3,0.25303077522446127,0.12845864650957725,0.0,0.8486678432885764,0.583827049390147,False
98,3,0.25288323575959487,0.12884898001656814,0.0,0.8487129421024239,0.5826125262958701,False
99,3,0.25310111527933793,0.12901823858127875,0.0,0.8487460487168155,0.5837820742626582,False
100,3,0.2530396891867413,0.1289469376206398,0.0,0.848698910725771,0.582674881558276,False
