epoch,phase,loss_bce,loss_kd,loss_diff,val_auc,val_f1,best
1,2,0.33217645655660066,0.1872212027802187,0.979604093467488,0.8487826574052164,0.5769366540927215,True
2,2,0.317375989521251,0.1343015384148149,0.8419359624385834,0.8469495037304616,0.5971534787056021,False
3,2,0.31344436810297127,0.13690937091322505,0.8113435226328233,0.844416015446582,0.5799602556558414,False
4,2,0.31213104724884033,0.13950251218150644,0.8032687674550449,0.8470598954319181,0.5743733256791765,False
5,2,0.30662257180494423,0.13076184405123487,0.7962922103264752,0.8458771847281026,0.6008489196576934,False
6,2,0.3041678851141649,0.1298197065206135,0.7858380517538857,0.848254390231744,0.5851314599820798,False
7,2,0.30218878476058736,0.13645265339051976,0.7796199917793274,0.846226465184089,0.5778653374618716,False
8,2,0.30175527579644146,0.1367798815755283,0.7731123058234944,0.8494744879543955,0.5851716818782644,True
9,2,0.29668742505943074,0.12925178952076855,0.76909560491057,0.8478434662933163,0.5874214976768397,False
10,2,0.2952284260707743,0.1338218761717572,0.7684770682278801,0.8485544876264521,0.5999280402865563,False
11,2,0.29343853715588064,0.13033869643421733,0.7655189387938556,0.8474385238163569,0.5894035458583868,False
12,2,0.2916797276805429,0.13345520746181994,0.7618035831872154,0.8478155395550475,0.5923568788771775,False
13,2,0.2875969243400237,0.12949196731342988,0.761016318026711,0.8495649649416193,0.58263602502726,True
14,2,0.28621434990097494,0.13153995507780245,0.758032747927834,0.8467622028718849,0.5816339108761015,False
15,2,0.2846122226294349,0.1335972475216669,0.752174601835363,0.8482579120972801,0.5873741524607784,False
16,2,0.284834606682553,0.13507790556725333,0.7462743731106029,0.845056263008231,0.5882014485758393,False
17,2,0.2843549724887399,0.13704434650785782,0.7395890039556167,0.8479501627733406,0.5849650523850197,False
18,2,0.2813846337444642,0.13265583992880933,0.7355489152319291,0.8489982503248269,0.586183627590414,False
19,2,0.27782846768112746,0.13031602738534703,0.7306198582929724,0.8484620165894106,0.5861690644185241,False
20,2,0.2763962535297169,0.13243555321412928,0.7230399952215307,0.8483347579898496,0.5844566091695163,False
21,2,0.2777567085097818,0.13403183747740352,0.7164598335238064,0.8479586033906644,0.5988585213726079,False
22,2,0.2750721345929539,0.13351392044740565,0.7108347959378186,0.8491057942189648,0.5803693863727276,False
23,2,0.27594806253910065,0.13468664643519065,0.7014750470133388,0.8489651740300429,0.5829490605929714,False
24,2,0.2737470453276354,0.13753865571583018,0.7044650877223295,0.8476740925989382,0.5869489552191959,False
25,2,0.2735228025737931,0.13231609082397291,0.6993951902670019,0.850065616213333,0.587360234252946,True
26,2,0.2708514367832857,0.1344403140246868,0.6944070633719949,0.849146910526596,0.5800523360622651,False
27,2,0.27015498543486877,0.13057880870559635,0.6899796864565682,0.8487377164154413,0.5915278272762183,False
28,2,0.2676456333959804,0.1336294395082137,0.6900266654351178,0.8487456432932209,0.5945610062274179,False
29,2,0.26777093813699837,0.13366784177282276,0.687790746197981,0.8482573632279717,0.5896879573531209,False
30,2,0.26873332393520016,0.1353657672948697,0.6859459526398602,0.8477353405820984,0.5810579116874925,False
31,2,0.26703135406269746,0.13361460912753553,0.6814771767924813,0.847128552467854,0.5913318027782544,False
32,2,0.26622983418843327,0.13384518071132548,0.6805062907583573,0.848526775645842,0.591129390792202,False
33,2,0.26553233143161326,0.13311399190741427,0.6788662970066071,0.8475692072014371,0.5866703674547208,False
34,2,0.26442892192041173,0.13470029589884422,0.6767108826076284,0.8477163220754559,0.584934418034269,False
35,2,0.26458707188858704,0.13489586947595372,0.6750635154107038,0.8486095761195536,0.587102444481904,False
36,2,0.263908227576929,0.13298442258554347,0.6742246834670796,0.8480902293141799,0.5896642636692703,False
37,2,0.26269100299652887,0.13311204138924093,0.6711402728277094,0.8486835566892388,0.583991673925608,False
38,2,0.2625315973863882,0.13442785380517736,0.66956046574256,0.8485661368805679,0.5936649399515079,False
39,2,0.26219390464179654,0.13330319085541895,0.6701617889544543,0.8474790951378266,0.5815679571043129,False
40,2,0.2628907377229017,0.13527903574354508,0.669107552836923,0.8467719508340436,0.5847649374741933,False
41,2,0.26223767198183956,0.13370831792845445,0.6663586812860826,0.8481181071013342,0.5837100345623704,False
42,2,0.26101817979532127,0.13270229780498674,0.6670984310262343,0.8487746943941321,0.5881108130425443,False
43,2,0.2601150901002042,0.13228147564565435,0.6660393125870648,0.8493832691011398,0.5826462018480907,False
44,2,0.2605407110908452,0.13215594256625457,0.666219900636112,0.8484422346147719,0.5884982451481452,False
45,2,0.25938824695699353,0.13135039696798606,0.6629951315767625,0.8480116203144282,0.5877410486203501,False
46,2,0.2592449275886311,0.1358006907736554,0.6635040027253768,0.8462946002309261,0.585350539840739,False
47,2,0.26206521251622367,0.13609355644268148,0.6623915872153114,0.849409143602872,0.5854664223152428,False
48,2,0.25904905620743246,0.13332072075675516,0.660008430480957,0.8485970542539715,0.579635460044082,False
49,2,0.259118699852158,0.1329443906159962,0.6597295578788308,0.8480599501424118,0.5806780373001749,False
50,2,0.2577572429881376,0.13117046435089671,0.6590570789926192,0.847517223563537,0.5871435175735019,False
51,2,0.25864115313572045,0.13170544101911433,0.6614940990419949,0.8473583191498262,0.5882125337030206,False
52,2,0.2573554397505872,0.13017095647314014,0.6600961089134216,0.8480692745688531,0.5837478779600376,False
53,2,0.25721248370759625,0.13129806299419963,0.6594338206683888,0.8474993915025154,0.5898653573252226,False
54,2,0.25727249550468784,0.1317302937455037,0.6597014963626862,0.848596196698642,0.5847158201967245,False
55,2,0.256470452336704,0.13291862826136983,0.6615646183490753,0.8478911420449619,0.5847636993100448,False
56,2,0.2574091974426718,0.1320292250636746,0.6602674564894508,0.847900065348464,0.5912468427357878,False
57,2,0.25820964311852174,0.13104582271155188,0.6591327120276058,0.8484103115442784,0.585033586570199,False
58,2,0.25643831097027836,0.13238920096088858,0.6578522903077743,0.8483397486617538,0.5854514749850245,False
59,2,0.2567837663433131,0.13200047612190247,0.6561667866566602,0.847534428511632,0.5907499340872904,False
60,2,0.2567086127751014,0.13086773060700474,0.6578356781426598,0.8490116870975655,0.5913487189320394,False
61,2,0.25530773138298707,0.1298793094123111,0.6588026530602399,0.8480927469122441,0.5880864274507938,False
62,2,0.2557808393064667,0.13127785110298326,0.6551436799414018,0.848500632045376,0.5868380582981505,False
63,2,0.2552691632333924,0.12944266638335059,0.6548557912602144,0.848219577153882,0.5901314384622118,False
64,2,0.2551494569462888,0.13191239338587313,0.6570338764611412,0.8480053661270087,0.5847334911840196,False
65,2,0.25527288764715195,0.1295332018943394,0.6569500512936536,0.8488330095611726,0.5860546124719159,False
66,2,0.25578637596438913,0.13309698573806705,0.653664883445291,0.8484570215242278,0.5848832728221847,False
67,2,0.25476674209622774,0.12910428752793984,0.6561469348037944,0.8479977995849627,0.5907421784219887,False
68,2,0.2551509041120024,0.13142703407827547,0.6540925362530876,0.8471767869594956,0.590109821616648,False
69,2,0.25541337185046253,0.13096039041000254,0.6555446894729838,0.8482091488107708,0.5873293886651055,False
70,2,0.2548777369015357,0.1322120677898912,0.6528973176198847,0.8476448358643907,0.5893648980959623,False
71,2,0.2546275648124078,0.12984725416583173,0.6529189120320713,0.8483236638181422,0.5874380830437178,False
72,2,0.2547870694714434,0.13005772561711423,0.65230132727062,0.8484392558366599,0.5826144420766621,False
73,2,0.2544306117822142,0.1300698137458633,0.6528283077127793,0.8481475665318852,0.5867492139400774,False
74,2,0.2544633351704654,0.13089555195149252,0.651616583852207,0.847914127726001,0.584435786284424,False
75,2,0.25470085003796744,0.12945314935025046,0.6538119403754964,0.8480023176804572,0.5875461238049764,False
76,2,0.2544378261355793,0.12960481073926478,0.6505130757303799,0.848526760467012,0.586028946121491,False
77,2,0.2539586249519797,0.12979923035292065,0.6531290078864378,0.8485968338862602,0.5843815734866362,False
78,2,0.25410070401780743,0.12976519763469696,0.6535943729035995,0.8487677866910429,0.5864882771613457,False
79,2,0.25439049172050815,0.13087519258260727,0.6506555168067708,0.848287728082283,0.5863153912599974,False
80,2,0.25371266156435013,0.12979833014747677,0.650970096097273,0.8483522499018841,0.5848142270665873,False
81,2,0.25310244104441476,0.1292763306375812,0.6506137953085058,0.848318419327651,0.5857096528354919,False
82,2,0.25398966450901594,0.1284449683392749,0.6507250526372124,0.8483111196690436,0.5848201815040083,False
83,2,0.2542328102623715,0.12832801263121998,0.6523140055291793,0.8481969238822955,0.585691675460504,False
84,2,0.2539815933388822,0.13008717250298052,0.6530924597207237,0.848364695956158,0.5852037357982484,False
85,2,0.2533923032529214,0.1291099536944838,0.6561267831746269,0.8481425619941234,0.5876239732984792,False
86,2,0.25349756812348084,0.12949000912554123,0.6515235602855682,0.8479639840934639,0.58489059441636,False
87,2,0.2537314107312876,0.12938304596087513,0.6505845977979547,0.8482379725290604,0.5871860893148464,False
88,2,0.25335945101345286,0.12870397243429632,0.6514233508530785,0.8481977689256975,0.5876684835465843,False
89,2,0.25431569753324285,0.12898357672726407,0.6545015065109029,0.8482386626417855,0.5852977061373348,False
90,2,0.25376592138234305,0.1297292849596809,0.6511738125015708,0.8480960320923788,0.5860202171414384,False
91,2,0.2535422742366791,0.12942597007050233,0.6528298679520103,0.8482118943907386,0.5866389367633175,False
92,2,0.25338305576759224,0.12895559344221563,0.6528626470004811,0.848299365552681,0.5876874309284401,False
93,2,0.2535942652646233,0.12980137042262974,0.6527950132594389,0.8482021352462221,0.5876233934038877,False
94,2,0.25345596145181093,0.1288427701767753,0.6530562498990227,0.8483035928717368,0.5858675239556371,False
95,2,0.2533581002670176,0.1285139905179248,0.6523221082547132,0.8482463343405676,0.5845541896849288,False
96,2,0.2535053246161517,0.12929913467344115,0.6503439633285298,0.8483035514950273,0.5864472341484326,False
97,2,0.25320199657888975,0.12815737855785034,0.6502851002356586,0.8482218537078208,0.5859583262239345,False
98,2,0.25321653835913716,0.1282915433540064,0.6520634013063767,0.8481977867023289,0.5871872383370302,False
99,2,0.25342957061879773,0.12842358933652148,0.6521742221187142,0.848255226500194,0.5856323119644951,False
100,2,0.2533738499178606,0.12859112550230586,0.6522528529167175,0.8482438774517377,0.5860718292573747,False
